"Time (s)","X (m/s^2)","Y (m/s^2)","Z (m/s^2)"
3.411714500E-2,3.069094181E0,-2.221735716E0,1.145803165E1
3.648599900E-2,3.270390272E0,-2.525923491E0,1.109910774E1
3.885480200E-2,3.423531055E0,-3.083451033E0,1.083559799E1
4.122360400E-2,3.715754509E0,-3.643670797E0,1.072792149E1
4.359245800E-2,3.976572037E0,-3.852145433E0,1.088345432E1
4.596126000E-2,3.801896095E0,-3.789932013E0,1.110150051E1
4.833006200E-2,3.282354355E0,-3.682255030E0,1.104885864E1
5.069891600E-2,2.552244425E0,-3.670290947E0,1.069442177E1
5.306771800E-2,1.704586983E0,-3.744468451E0,1.010070229E1
5.543652000E-2,8.548358679E-1,-3.823431492E0,9.597910881E0
5.780537400E-2,7.896314561E-2,-3.888037682E0,9.607481956E0
6.017417700E-2,-5.578267574E-1,-3.866502285E0,1.050538826E1
6.254297900E-2,-1.039083242E0,-3.833002806E0,1.212622738E1
6.491183300E-2,-1.242473125E0,-3.660719633E0,1.407009602E1
6.728063500E-2,-1.283151150E0,-3.203391314E0,1.581536102E1
6.964943700E-2,-1.240080357E0,-2.774776936E0,1.640190125E1
7.201829100E-2,-1.218544960E0,-2.465803623E0,1.577229023E1
7.438709300E-2,-1.266401410E0,-2.202593327E0,1.476192093E1
7.675589500E-2,-1.419841170E0,-1.972882271E0,1.385234928E1
7.912469700E-2,-1.556231976E0,-1.771586061E0,1.313868999E1
8.149355200E-2,-1.632802367E0,-1.582553029E0,1.255214977E1
8.386235400E-2,-1.549053550E0,-1.453340650E0,1.196560860E1
8.623115600E-2,-1.314257860E0,-1.395613790E0,1.133839035E1
8.860001000E-2,-9.074779749E-1,-1.383649707E0,1.070160007E1
9.096881200E-2,-4.190430641E-1,-1.429412484E0,1.009113121E1
9.333761400E-2,1.292124242E-1,-1.501197100E0,9.621838570E0
9.570646800E-2,7.061817646E-1,-1.611266971E0,9.286844254E0
9.807527000E-2,1.273579836E0,-1.730908036E0,9.006584167E0
1.004440720E-1,1.778764486E0,-1.864906192E0,8.784051895E0
1.028128740E-1,2.255235434E0,-1.987239242E0,8.621041298E0
1.051817290E-1,2.980559587E0,-2.054238319E0,8.896514893E0
1.075505310E-1,3.871287823E0,-2.154736757E0,9.401699066E0
1.099193330E-1,4.539184570E0,-2.087737799E0,9.550054550E0
1.122881870E-1,4.821836948E0,-1.982453585E0,9.490233421E0
1.146569890E-1,4.984548569E0,-1.891227245E0,9.595518112E0
1.170257910E-1,5.204688549E0,-1.807478428E0,9.839884758E0
1.193946450E-1,5.410770416E0,-1.673480392E0,1.001216793E1
1.217634470E-1,5.513661385E0,-1.465304732E0,1.003370380E1
1.241322490E-1,5.590231895E0,-1.259222865E0,9.815657616E0
1.265011040E-1,5.657230854E0,-1.115653515E0,9.499805450E0
1.288699060E-1,5.767300606E0,-1.086939692E0,9.164510727E0
1.312387080E-1,5.817550182E0,-1.194616675E0,8.760123253E0
1.336075620E-1,5.827121258E0,-1.424626827E0,8.314759254E0
1.359763640E-1,5.839085579E0,-1.733300924E0,7.843074322E0
1.383451660E-1,5.851049423E0,-2.133201361E0,7.333104134E0
1.407140200E-1,5.860620975E0,-2.580958366E0,6.784848690E0
1.430828220E-1,5.899205208E0,-3.066701412E0,6.195915222E0
1.454516240E-1,5.944668770E0,-3.545564890E0,5.554339409E0
1.478204270E-1,5.954239845E0,-3.988536358E0,4.927121162E0
1.501892810E-1,5.870192051E0,-4.347758770E0,4.252045631E0
1.525580830E-1,5.762515068E0,-4.630111694E0,3.557528973E0
1.549268850E-1,5.561518192E0,-4.809872627E0,2.865704298E0
1.572957390E-1,5.298008442E0,-4.898406982E0,2.207378864E0
1.596645410E-1,5.020441055E0,-5.025226593E0,1.570588946E0
1.620333430E-1,4.824229717E0,-5.518447399E0,4.022932947E-1
1.644021970E-1,5.425127029E0,-6.346662998E0,-2.365305185E0
1.667709990E-1,6.126523495E0,-6.238986015E0,-4.141676903E0
1.691398020E-1,5.470590591E0,-5.618945599E0,-3.533600807E0
1.715086560E-1,4.704289436E0,-5.142475128E0,-2.099701881E0
1.738774580E-1,4.524827480E0,-4.876871586E0,-9.840483069E-1
1.762462600E-1,4.718646049E0,-4.658825874E0,-5.315057039E-1
1.786150620E-1,5.015655518E0,-4.424329281E0,-2.632105052E-1
1.809839160E-1,4.874478817E0,-3.921537161E0,4.573282301E-1
1.833527180E-1,4.331008911E0,-3.133999348E0,1.584945917E0
1.857215200E-1,3.730111361E0,-2.149951220E0,2.930310488E0
1.880903740E-1,3.445066452E0,-1.218544960E0,4.264009953E0
1.904591770E-1,3.495315790E0,-4.214358926E-1,5.489733219E0
1.928279790E-1,3.437887907E0,1.770688742E-1,6.567101955E0
1.951968330E-1,3.138785124E0,5.123631358E-1,7.512565613E0
1.975656350E-1,2.559422970E0,6.008976102E-1,9.270093918E0
1.999344370E-1,1.427019596E0,3.305086195E-1,1.505653763E1
2.023032910E-1,-4.070789516E-1,-5.264209956E-2,2.355315208E1
2.046720930E-1,-2.496910334E0,-3.975076675E-1,3.075225830E1
2.070408950E-1,-3.663112402E0,-7.947162390E-1,3.155893707E1
2.094096970E-1,-3.538386583E0,-1.381256819E0,2.706760979E1
2.117785520E-1,-2.540280342E0,-2.142772675E0,2.126441574E1
2.141473540E-1,-1.156331539E0,-2.858525753E0,1.647368622E1
2.165161560E-1,6.056832075E-1,-3.306282759E0,1.355294704E1
2.188850100E-1,1.604088426E0,-3.189034462E0,1.158754253E1
2.212538120E-1,2.140379906E0,-2.860918522E0,1.004088211E1
2.236226140E-1,2.508874655E0,-2.523231506E0,8.707481384E0
2.259914680E-1,2.777169704E0,-2.195414782E0,7.498209000E0
2.283602700E-1,2.970988512E0,-1.884048700E0,6.512066841E0
2.307290720E-1,3.078665495E0,-1.666301847E0,5.633302689E0
2.330979270E-1,3.061915636E0,-1.527518153E0,4.991727352E0
2.354667290E-1,3.018844843E0,-1.455733418E0,4.445864677E0
2.378355310E-1,2.923131943E0,-1.422233939E0,3.940679789E0
2.402043330E-1,2.817847729E0,-1.398006678E0,3.492922783E0
2.425731870E-1,2.717349291E0,-1.388435364E0,3.083451033E0
2.449419890E-1,2.612065077E0,-1.398006678E0,2.726920605E0
2.473107910E-1,2.508874655E0,-1.460519075E0,2.408375978E0
2.496796450E-1,2.453839540E0,-1.505982757E0,2.152343988E0
2.520484470E-1,2.408375978E0,-1.587338686E0,1.922333837E0
2.544172490E-1,2.403590441E0,-1.702194214E0,1.773978829E0
2.567861040E-1,2.444268227E0,-1.845763564E0,1.635195136E0
2.591549060E-1,2.518445730E0,-2.023131609E0,1.510768414E0
2.615237080E-1,2.609672308E0,-2.164308071E0,1.366899967E0
2.638925100E-1,2.772384167E0,-2.312663078E0,1.197009563E0
2.662613640E-1,2.963809967E0,-2.425125837E0,5.937191248E-1
2.686301660E-1,3.210569859E0,-2.415554523E0,-5.673980713E-1
2.709989680E-1,3.480958700E0,-2.336591244E0,-1.663909078E0
2.733678220E-1,3.744468451E0,-2.274377823E0,-1.790728688E0
2.757366240E-1,3.967000723E0,-2.204986095E0,-1.096511006E0
2.781054270E-1,4.242474556E0,-2.061416626E0,-2.225325108E-1
2.804742810E-1,4.543970108E0,-1.872084618E0,4.908277392E-1
2.828430830E-1,4.809872627E0,-1.730908036E0,1.031904817E0
2.852118850E-1,5.006083965E0,-1.661516190E0,1.369292736E0
2.875807390E-1,5.140082359E0,-1.659123421E0,1.625623941E0
2.899495410E-1,5.204688549E0,-1.721336842E0,1.898405671E0
2.923183430E-1,5.209474087E0,-1.817049742E0,2.111665964E0
2.946871450E-1,5.192724228E0,-1.929512382E0,2.228914261E0
2.970555830E-1,5.159224510E0,-1.999203324E0,2.226521492E0
2.994248020E-1,5.183153152E0,-1.999203324E0,2.161915302E0
3.017936040E-1,5.240580559E0,-1.919941068E0,2.157129526E0
3.041624580E-1,5.238187790E0,-1.903191328E0,2.147558212E0
3.065312600E-1,5.242973328E0,-1.980060697E0,2.195414782E0
3.089000620E-1,5.305186749E0,-2.195414782E0,2.367697954E0
3.112689160E-1,5.468197823E0,-2.595315218E0,2.698206663E0
3.136377180E-1,5.654838085E0,-3.090928555E0,3.059522867E0
3.160065200E-1,5.729015827E0,-3.600599766E0,3.303889751E0
3.183753220E-1,5.685945034E0,-3.990929127E0,3.325425386E0
3.207441770E-1,5.539982796E0,-4.247260094E0,3.220141172E0
3.231129790E-1,5.382056236E0,-4.443471432E0,3.143570662E0
3.254817810E-1,5.135296345E0,-4.754538536E0,3.081058264E0
3.278506350E-1,4.876871586E0,-5.228616714E0,3.045166016E0
3.302194370E-1,4.613361835E0,-5.786443233E0,2.999702215E0
3.325882390E-1,4.369294167E0,-6.471388817E0,2.896811008E0
3.349570930E-1,4.115355968E0,-7.191927433E0,2.765205622E0
3.373258950E-1,3.892823458E0,-7.969893932E0,2.607279301E0
3.396946970E-1,3.804288864E0,-8.702695847E0,2.516052961E0
3.420634990E-1,3.842574120E0,-9.396913528E0,2.530709028E0
3.444323540E-1,4.014857292E0,-1.005763149E1,2.624029160E0
3.468011560E-1,4.352544308E0,-1.062981510E1,2.803490877E0
3.491699580E-1,4.826622486E0,-1.105842972E1,3.018844843E0
3.515388120E-1,5.365306377E0,-1.132881927E1,3.320639610E0
3.539076140E-1,5.947061539E0,-1.154207897E1,3.701397419E0
3.562764160E-1,6.533602238E0,-1.161625671E1,4.242474556E0
3.586452700E-1,7.012166977E0,-1.140060329E1,5.044369221E0
3.610140720E-1,7.318747044E0,-1.093848991E1,6.104988098E0
3.633828740E-1,7.392924786E0,-1.022512913E1,7.256533623E0
3.657517290E-1,7.220641613E0,-9.346664429E0,8.242975235E0
3.681205310E-1,6.803991318E0,-8.439186096E0,8.951549530E0
3.704893330E-1,6.183950901E0,-7.548458099E0,9.291629791E0
3.728581350E-1,5.489733219E0,-6.823133945E0,9.327521324E0
3.752269890E-1,4.829015255E0,-6.296413898E0,9.092725754E0
3.775957910E-1,4.237689018E0,-5.985346794E0,8.611469269E0
3.799645930E-1,3.761218071E0,-5.863013744E0,7.914859295E0
3.823334470E-1,3.433102369E0,-5.903990746E0,7.124928474E0
3.847022490E-1,3.181855917E0,-6.021239281E0,6.365805626E0
3.870710520E-1,3.028416157E0,-6.140880108E0,5.695516109E0
3.894399060E-1,2.880061150E0,-6.179165363E0,5.149653435E0
3.918087080E-1,2.724527597E0,-6.116951942E0,4.742574692E0
3.941775100E-1,2.631207705E0,-6.052345753E0,4.500899315E0
3.965463120E-1,2.604886532E0,-6.006882191E0,4.345366001E0
3.989151660E-1,2.552244425E0,-5.970989704E0,4.208974838E0
4.012839680E-1,2.528316259E0,-5.923133373E0,4.036392689E0
4.036527700E-1,2.439482689E0,-5.951847076E0,3.775574923E0
4.060216240E-1,2.365305185E0,-6.057131290E0,3.468994617E0
4.083904270E-1,2.276770830E0,-6.238986015E0,3.150749207E0
4.107592290E-1,2.255235434E0,-6.497709751E0,2.877668381E0
4.131280310E-1,2.279163599E0,-6.823133945E0,2.609672308E0
4.154968850E-1,2.303091764E0,-7.194320202E0,2.379662037E0
4.178656870E-1,2.319841623E0,-7.646862984E0,2.214557409E0
4.202344890E-1,2.336591244E0,-8.161619186E0,2.102094650E0
4.226033430E-1,2.317448616E0,-8.695218086E0,2.025524378E0
4.249721450E-1,2.319841623E0,-9.291629791E0,1.965703845E0
4.273409470E-1,2.329412937E0,-9.880562782E0,1.934298038E0
4.297098020E-1,2.365305185E0,-1.043121147E1,1.924726725E0
4.320786040E-1,2.370090723E0,-1.090499020E1,1.907976985E0
4.344474060E-1,2.350948334E0,-1.129053402E1,1.929512382E0
4.368162080E-1,2.291127682E0,-1.162582779E1,1.948654890E0
4.391850620E-1,2.159522533E0,-1.185553932E1,1.987239242E0
4.415538640E-1,1.924726725E0,-1.193689442E1,2.001596212E0
4.439226660E-1,1.635195136E0,-1.190818119E1,2.049452543E0
4.462915200E-1,1.328614831E0,-1.176939774E1,2.152343988E0
4.486603220E-1,1.015154958E0,-1.156600761E1,2.307877541E0
4.510291240E-1,7.109674215E-1,-1.135035419E1,2.518445730E0
4.533979790E-1,4.525425732E-1,-1.116610718E1,2.738884687E0
4.557667810E-1,2.297109663E-1,-1.108714390E1,2.992523909E0
4.581355830E-1,4.546362907E-2,-1.106800079E1,3.282354355E0
4.605044370E-1,-6.460621208E-2,-1.118524933E1,3.588635683E0
4.628732390E-1,-1.220339537E-1,-1.140778160E1,3.890430450E0
4.652420410E-1,-1.196411327E-1,-1.164975643E1,4.216153622E0
4.676108430E-1,-9.332008660E-2,-1.191296673E1,4.524827480E0
4.699796970E-1,-7.178468257E-2,-1.213579845E1,4.812265396E0
4.723484990E-1,-5.503492057E-2,-1.229851055E1,5.101797104E0
4.747173020E-1,-7.178468257E-2,-1.239900875E1,5.329114914E0
4.770861560E-1,-5.264209956E-2,-1.252582836E1,5.532804012E0
4.794549580E-1,-4.785645381E-2,-1.264816093E1,5.688337803E0
4.818237600E-1,-5.024927482E-2,-1.276540947E1,5.798407555E0
4.841925620E-1,-7.178468257E-2,-1.288026524E1,5.870192051E0
4.865614160E-1,-1.124626622E-1,-1.301187038E1,5.932704449E0
4.889302180E-1,-1.603191197E-1,-1.311715508E1,5.990132332E0
4.912990200E-1,-1.986042857E-1,-1.318684578E1,6.081059456E0
4.936678740E-1,-2.656033039E-1,-1.325623703E1,6.181558132E0
4.960366770E-1,-3.687937856E-1,-1.332084370E1,6.260521412E0
4.984054790E-1,-4.788636267E-1,-1.340698528E1,6.313163280E0
5.007742810E-1,-5.841478109E-1,-1.350509071E1,6.329913139E0
5.031431350E-1,-6.774678826E-1,-1.358166122E1,6.339484692E0
5.055119370E-1,-7.492526174E-1,-1.368215942E1,6.341877460E0
5.078807390E-1,-7.971090674E-1,-1.379492188E1,6.322734833E0
5.102495930E-1,-7.851449251E-1,-1.391934872E1,6.250949860E0
5.126183950E-1,-7.660023570E-1,-1.404377556E1,6.186343670E0
5.149871970E-1,-7.372884750E-1,-1.414905930E1,6.078666687E0
5.173560520E-1,-7.516453862E-1,-1.431685638E1,5.925526142E0
5.197248540E-1,-7.683951855E-1,-1.449871063E1,5.757729530E0
5.220936560E-1,-7.683951855E-1,-1.463270855E1,5.597410202E0
5.244625100E-1,-7.301099896E-1,-1.474517155E1,5.482554913E0
5.268313120E-1,-6.798607111E-1,-1.483370590E1,5.451447964E0
5.292001140E-1,-6.224330068E-1,-1.486959839E1,5.456233978E0
5.315689160E-1,-5.626124144E-1,-1.478345680E1,5.501697540E0
5.339377700E-1,-4.070789516E-1,-1.474995708E1,5.544768333E0
5.363065720E-1,-2.033899277E-1,-1.483131313E1,5.611767292E0
5.386753740E-1,4.785645381E-2,-1.493928909E1,5.681159019E0
5.410442290E-1,2.826521695E-1,-1.495125294E1,5.757729530E0
5.434130310E-1,4.597210586E-1,-1.475952816E1,5.858228207E0
5.457818330E-1,6.678966284E-1,-1.469252968E1,5.982954025E0
5.481506350E-1,9.242277741E-1,-1.481217003E1,6.071488380E0
5.505194890E-1,1.137188911E0,-1.495603848E1,6.128916264E0
5.528882910E-1,1.316650629E0,-1.511157227E1,6.138487339E0
5.552570930E-1,1.486840129E0,-1.527428436E1,6.133701801E0
5.576259470E-1,1.594517231E0,-1.542503166E1,6.126523495E0
5.599947490E-1,1.678265929E0,-1.551625824E1,6.104988098E0
5.623635520E-1,1.790728688E0,-1.560957813E1,6.128916264E0
5.647324060E-1,1.931905150E0,-1.567657757E1,6.219843388E0
5.671012080E-1,2.035095692E0,-1.567179203E1,6.339484692E0
5.694700100E-1,2.190629244E0,-1.562632847E1,6.488138676E0
5.718388120E-1,2.377269268E0,-1.557129383E1,6.605386734E0
5.742076660E-1,2.528316259E0,-1.547318745E1,6.717849731E0
5.765764680E-1,2.719742060E0,-1.533889008E1,6.792026997E0
5.789452700E-1,2.858525753E0,-1.521685696E1,6.842276573E0
5.813141240E-1,3.018844843E0,-1.508525085E1,6.873383045E0
5.836829270E-1,3.181855917E0,-1.498475266E1,6.878168583E0
5.860517290E-1,3.394817114E0,-1.491536045E1,6.890132904E0
5.884205310E-1,3.672683716E0,-1.491536045E1,6.882954121E0
5.907893850E-1,3.993321896E0,-1.493928909E1,6.880561352E0
5.931581870E-1,4.342973232E0,-1.498235989E1,6.914061069E0
5.955269890E-1,4.704289436E0,-1.509960842E1,6.995417118E0
5.978958430E-1,5.118546963E0,-1.520489216E1,7.153642178E0
6.002646450E-1,5.609374523E0,-1.535085487E1,7.347461224E0
6.026334470E-1,6.097809315E0,-1.552104378E1,7.562815189E0
6.050023020E-1,6.564708710E0,-1.575075531E1,7.744968891E0
6.073711040E-1,7.060322285E0,-1.597568035E1,7.888537884E0
6.097399060E-1,7.510172844E0,-1.622004700E1,8.022536278E0
6.121087080E-1,7.943572998E0,-1.646411514E1,8.149654388E0
6.144775620E-1,8.298009872E0,-1.668694687E1,8.276473999E0
6.168463640E-1,8.575576782E0,-1.690947914E1,8.379365921E0
6.192151660E-1,8.870193481E0,-1.709611893E1,8.460721970E0
6.215840200E-1,9.123832703E0,-1.727827263E1,8.530113220E0
6.239528220E-1,9.377771378E0,-1.743619919E1,8.587541580E0
6.263216240E-1,9.626625061E0,-1.754148293E1,8.666504860E0
6.286904270E-1,9.870991707E0,-1.758216095E1,8.748159409E0
6.310592810E-1,1.007438183E1,-1.755344772E1,8.851051331E0
6.334280830E-1,1.024905777E1,-1.749123383E1,8.973084450E0
6.357968850E-1,1.041446114E1,-1.741466331E1,9.123832703E0
6.381657390E-1,1.052213860E1,-1.730459404E1,9.286844254E0
6.405345410E-1,1.062502956E1,-1.715863228E1,9.423234940E0
6.429033430E-1,1.069442177E1,-1.696212196E1,9.535696983E0
6.452721970E-1,1.075902748E1,-1.673480415E1,9.590732574E0
6.476409990E-1,1.080209827E1,-1.647607994E1,9.636196136E0
6.500098020E-1,1.082841969E1,-1.622004700E1,9.600303650E0
6.523786040E-1,1.087866879E1,-1.592782402E1,9.530911446E0
6.547474580E-1,1.094836044E1,-1.561675739E1,9.447162628E0
6.571162600E-1,1.103450203E1,-1.532931900E1,9.349057198E0
6.594850620E-1,1.112303638E1,-1.503739452E1,9.214759827E0
6.618539160E-1,1.122592735E1,-1.480499172E1,9.064012527E0
6.642227180E-1,1.132403278E1,-1.463749409E1,8.946763992E0
6.665915200E-1,1.146042442E1,-1.452742481E1,8.865407944E0
6.689603220E-1,1.163061333E1,-1.447478199E1,8.851051331E0
6.713291770E-1,1.180768204E1,-1.451306725E1,8.922835350E0
6.736979790E-1,1.202542973E1,-1.464467239E1,9.097511292E0
6.760667810E-1,1.224108219E1,-1.486002636E1,9.308379173E0
6.784356350E-1,1.242054367E1,-1.508764362E1,9.538089752E0
6.808044370E-1,1.254257774E1,-1.536760426E1,9.734301567E0
6.831732390E-1,1.257607746E1,-1.562393570E1,9.842277527E0
6.855420410E-1,1.256650639E1,-1.585364628E1,9.882955551E0
6.879108950E-1,1.252343559E1,-1.605254936E1,9.882955551E0
6.902796970E-1,1.244207954E1,-1.620808411E1,9.861420631E0
6.926484990E-1,1.232722378E1,-1.628226089E1,9.801301003E0
6.950173540E-1,1.222672558E1,-1.635404587E1,9.734301567E0
6.973861560E-1,1.216211891E1,-1.639233017E1,9.605089188E0
6.997549580E-1,1.204457188E1,-1.629183197E1,9.423234940E0
7.021238120E-1,1.192732334E1,-1.598525143E1,9.255437851E0
7.044926140E-1,1.172632694E1,-1.554018688E1,9.061619759E0
7.068614160E-1,1.144606686E1,-1.504696655E1,8.836693764E0
7.092302180E-1,1.110389328E1,-1.454895973E1,8.542078018E0
7.115990720E-1,1.075663471E1,-1.407727432E1,8.173583031E0
7.139678740E-1,1.039053345E1,-1.367258835E1,7.756932735E0
7.163366770E-1,1.004088211E1,-1.328016567E1,7.299604416E0
7.187055310E-1,9.698409081E0,-1.285394382E1,6.882954121E0
7.210743330E-1,9.442377090E0,-1.258804131E1,6.459424496E0
7.234431350E-1,9.303593636E0,-1.239422321E1,6.102594852E0
7.258119370E-1,9.339486122E0,-1.222194004E1,5.791228771E0
7.281807910E-1,9.535696983E0,-1.210947704E1,5.475376606E0
7.305495930E-1,9.844670296E0,-1.206132126E1,5.080261707E0
7.329183950E-1,1.018445110E1,-1.206879902E1,4.716253281E0
7.352871970E-1,1.052692413E1,-1.203739357E1,4.390829563E0
7.376560520E-1,1.084277630E1,-1.203739357E1,4.117748737E0
7.400248540E-1,1.111107159E1,-1.206879902E1,3.921537161E0
7.423936560E-1,1.136471081E1,-1.209512043E1,3.730111361E0
7.447625100E-1,1.154686451E1,-1.208794212E1,3.519243956E0
7.471313120E-1,1.171914768E1,-1.200150108E1,3.308675528E0
7.495001140E-1,1.183639622E1,-1.186511040E1,3.105285645E0
7.518689680E-1,1.193689442E1,-1.162822056E1,2.860918522E0
7.542377700E-1,1.191775227E1,-1.131924725E1,2.564208508E0
7.566065720E-1,1.184836006E1,-1.096750259E1,2.231307030E0
7.589753740E-1,1.171196938E1,-1.058435154E1,1.864906192E0
7.613442290E-1,1.154686451E1,-1.020359421E1,1.515554070E0
7.637130310E-1,1.137428284E1,-9.880562782E0,1.158724308E0
7.660818330E-1,1.117328548E1,-9.564411163E0,8.090731502E-1
7.684506870E-1,1.096750259E1,-9.277272224E0,4.860421121E-1
7.708194890E-1,1.077338505E1,-9.052047729E0,2.105683982E-1
7.731882910E-1,1.060588741E1,-8.908478737E0,-3.110669367E-2
7.755570930E-1,1.046471119E1,-8.807980537E0,-2.081755698E-1
7.779259470E-1,1.028255749E1,-8.685647011E0,-3.472583890E-1
7.802947490E-1,1.012702370E1,-8.551649094E0,-4.812564552E-1
7.826635520E-1,9.988240242E0,-8.381758690E0,-6.607181430E-1
7.850324060E-1,9.847063065E0,-8.178368568E0,-7.995018363E-1
7.874012080E-1,9.667302132E0,-7.984251022E0,-9.864411354E-1
7.897700100E-1,9.495018959E0,-7.756932735E0,-1.149153113E0
7.921388120E-1,9.253045082E0,-7.500601768E0,-1.319043517E0
7.945076660E-1,8.963513374E0,-7.290033340E0,-1.534696579E0
7.968764680E-1,8.640183449E0,-7.069893837E0,-1.742872238E0
7.992452700E-1,8.262117386E0,-6.866204739E0,-1.917548299E0
8.016141240E-1,7.929215908E0,-6.672386169E0,-2.039881229E0
8.039829270E-1,7.594220638E0,-6.524031162E0,-2.166700840E0
8.063517290E-1,7.328318596E0,-6.428019047E0,-2.281556368E0
8.087205830E-1,7.077072144E0,-6.305984974E0,-2.365305185E0
8.110893850E-1,6.878168583E0,-6.188736439E0,-2.453839540E0
8.134581870E-1,6.660421848E0,-6.052345753E0,-2.573779821E0
8.158269890E-1,6.396912098E0,-5.908776283E0,-2.705385208E0
8.181958430E-1,6.049952984E0,-5.796014786E0,-2.875275612E0
8.205646450E-1,5.666802406E0,-5.717051506E0,-3.049951553E0
8.229334470E-1,5.242973328E0,-5.626124382E0,-3.203391314E0
8.253022490E-1,4.850550652E0,-5.587839127E0,-3.320639610E0
8.276711040E-1,4.462614059E0,-5.609374523E0,-3.430709362E0
8.300399060E-1,4.033999920E0,-5.676373482E0,-3.564707518E0
8.324087080E-1,3.605385542E0,-5.800800323E0,-3.763610840E0
8.347775620E-1,3.215355396E0,-5.932704449E0,-3.940679789E0
8.371463640E-1,2.817847729E0,-6.061916828E0,-4.089034557E0
8.395151660E-1,2.456232548E0,-6.176772594E0,-4.127319813E0
