"Time (s)","X (rad/s)","Y (rad/s)","Z (rad/s)"
3.784345833E-2,-3.749707639E-1,-6.117263436E-1,-4.338113964E-2
4.785645833E-2,-3.567957580E-1,-6.751796603E-1,-1.495808065E-1
5.786845833E-2,-2.668439746E-1,-6.706438661E-1,-2.880321741E-1
6.788045833E-2,-1.350800842E-1,-6.751099825E-1,-4.261639416E-1
7.789245833E-2,2.359001897E-3,-6.990196705E-1,-5.626429319E-1
8.790445833E-2,1.519674063E-1,-6.729776859E-1,-6.599183679E-1
9.791645833E-2,2.897347510E-1,-6.207307577E-1,-7.213721871E-1
1.079284583E-1,4.005275667E-1,-5.710891485E-1,-7.685679197E-1
1.179404583E-1,4.520563781E-1,-5.365702510E-1,-7.982118726E-1
1.279524583E-1,4.436423779E-1,-5.306519270E-1,-8.079928160E-1
1.379644583E-1,3.550720811E-1,-5.879089832E-1,-7.572792172E-1
1.479764583E-1,2.216690034E-1,-6.626567245E-1,-6.653621197E-1
1.579884583E-1,8.328525722E-2,-7.288527489E-1,-5.618063211E-1
1.680004583E-1,-3.538493067E-2,-7.642203569E-1,-4.871408641E-1
1.780124583E-1,-1.385517418E-1,-7.661548853E-1,-4.942208827E-1
1.880244583E-1,-1.962246150E-1,-8.059065938E-1,-5.936433077E-1
1.980364583E-1,-1.621895283E-1,-6.718967557E-1,-7.155051827E-1
2.080484583E-1,-6.894586980E-2,-4.197153747E-1,-8.136171103E-1
2.180604583E-1,1.077468693E-1,-1.712315232E-1,-8.993999958E-1
2.280724583E-1,3.453405201E-1,7.737749070E-2,-9.920350909E-1
2.380844583E-1,6.261276007E-1,5.478333235E-1,-1.126474977E0
2.480964583E-1,8.810306787E-1,8.491055369E-1,-1.279002190E0
2.581084583E-1,1.042506218E0,6.500226259E-1,-1.417804956E0
2.681204583E-1,1.007542372E0,2.100237012E-1,-1.495818734E0
2.781334583E-1,7.823575735E-1,-1.521025002E-1,-1.344738007E0
2.881454583E-1,5.132624507E-1,-3.433726132E-1,-1.140858650E0
2.981574583E-1,2.668035924E-1,-7.234477401E-1,-1.021104932E0
3.081694583E-1,1.198221445E-1,-1.038904548E0,-9.059445858E-1
3.181814583E-1,1.092763618E-1,-1.251727462E0,-8.516362906E-1
3.281934583E-1,2.311290354E-1,-1.400381684E0,-8.620977402E-1
3.382054583E-1,4.453477263E-1,-1.478312373E0,-8.883796930E-1
3.482174583E-1,7.245423198E-1,-1.480383039E0,-8.898095489E-1
3.582294583E-1,1.068931460E0,-1.341677547E0,-8.010664582E-1
3.682414583E-1,1.480481744E0,-1.024788499E0,-6.195142865E-1
3.782534583E-1,1.835327268E0,-8.216194510E-1,-4.627072513E-1
3.882654583E-1,2.109029293E0,-7.977564335E-1,-2.856869400E-1
3.982773750E-1,2.192342997E0,-9.846466184E-1,-9.044783562E-2
4.082893750E-1,1.393697381E0,-6.278213859E-1,6.126128435E-1
4.183013750E-1,6.703003645E-1,-1.061274290E0,1.204304218E0
4.283133750E-1,3.245461583E-1,-1.693864703E0,1.543055296E0
4.383253750E-1,3.937652409E-1,-2.018271208E0,1.728720188E0
4.483373750E-1,5.393906236E-1,-2.061088324E0,1.871841550E0
4.583493750E-1,6.419163346E-1,-2.231734514E0,2.072801113E0
4.683613750E-1,6.901422143E-1,-2.508384466E0,2.210835695E0
4.783733750E-1,7.281509638E-1,-2.604348183E0,2.224874020E0
4.883853750E-1,6.856314540E-1,-2.294918776E0,2.167649508E0
4.983973750E-1,5.907161236E-1,-2.039289951E0,2.123813868E0
5.084093750E-1,5.318652987E-1,-1.900134325E0,2.076056242E0
5.184213750E-1,4.150171876E-1,-1.813992977E0,2.023832083E0
5.284343750E-1,1.823045760E-1,-1.523726702E0,1.942909360E0
5.384463750E-1,-1.913625561E-2,-1.041446805E0,1.737667084E0
5.484583750E-1,-1.970268786E-1,-5.608964562E-1,1.489598155E0
5.584703750E-1,-3.056235015E-1,-3.515037000E-1,1.289247394E0
5.684823750E-1,-3.381276727E-1,-2.285788506E-1,1.130943537E0
5.784943750E-1,-3.633451760E-1,-2.539351285E-1,1.052481771E0
5.885063750E-1,-3.301843107E-1,-5.242497325E-1,1.036404490E0
5.985183750E-1,-3.145009279E-1,-1.455230474E0,1.199338913E0
6.085303750E-1,-4.281521142E-1,-2.172680378E0,1.511430860E0
6.185423750E-1,-4.671165943E-1,-2.462843657E0,1.830380082E0
6.285543750E-1,-3.151222467E-1,-2.238290548E0,2.078231573E0
6.385663750E-1,-5.818801001E-2,-1.748930335E0,2.260373831E0
6.485783750E-1,1.062179804E-1,-1.235447288E0,2.468797207E0
6.585903750E-1,1.002192497E-1,-9.212020040E-1,2.769714117E0
6.686023750E-1,7.650964893E-3,-7.770346999E-1,3.149513006E0
6.786143750E-1,-1.039598808E-1,-6.536180377E-1,3.488272190E0
6.886263750E-1,-1.827481836E-1,-4.934100211E-1,3.691385508E0
6.986383750E-1,-2.628107071E-1,-3.258433044E-1,3.766190290E0
7.086503750E-1,-2.716984749E-1,-4.323087633E-1,3.806209087E0
7.186623750E-1,-1.556161046E-1,-6.727149487E-1,3.859018087E0
7.286743750E-1,5.200206116E-2,-7.384327054E-1,3.845885277E0
7.386863750E-1,2.878951132E-1,-7.713850141E-1,3.776747465E0
7.486983750E-1,5.040619969E-1,-8.441007733E-1,3.717168093E0
7.587113750E-1,7.457940578E-1,-8.761702180E-1,3.653089046E0
7.687233750E-1,1.038885355E0,-6.583023667E-1,3.510260820E0
7.787353750E-1,1.359890580E0,-3.026663363E-1,3.284856319E0
7.887473750E-1,1.711280584E0,1.106844917E-1,3.056474209E0
7.987593750E-1,1.991710305E0,2.886416316E-1,2.809376478E0
8.087713750E-1,1.997383595E0,5.166635290E-2,2.552342176E0
8.187833750E-1,1.792185545E0,-3.215934932E-1,2.350651026E0
8.287953750E-1,1.441533566E0,-4.957871139E-1,2.200044870E0
8.388073750E-1,1.127084255E0,-4.766277373E-1,2.167171955E0
8.488193750E-1,8.763287663E-1,7.257655263E-2,2.167987108E0
8.588313750E-1,7.484325171E-1,7.951384187E-1,2.127455235E0
8.688433750E-1,8.099696636E-1,1.282508373E0,2.099576235E0
8.788553750E-1,1.030964017E0,1.595987082E0,2.089297056E0
8.888673750E-1,1.408216238E0,1.757944822E0,2.104775667E0
8.988793750E-1,1.945130825E0,1.845561147E0,2.164037943E0
9.088913750E-1,2.724882364E0,1.923666120E0,2.194495916E0
9.189033750E-1,3.694148064E0,2.261898756E0,2.117150307E0
9.289153750E-1,4.431429386E0,3.217193127E0,1.841237187E0
9.389273750E-1,4.769761086E0,4.228652954E0,1.543369889E0
9.489393750E-1,4.795282841E0,4.733603477E0,1.380069613E0
9.589513750E-1,4.597636223E0,4.750991821E0,1.311645746E0
9.689633750E-1,4.316282272E0,4.267213345E0,1.260440111E0
9.789753750E-1,4.006486893E0,3.771777391E0,1.185754180E0
9.889873750E-1,3.723198652E0,3.502333879E0,9.850166440E-1
9.990003750E-1,3.438154697E0,3.442380905E0,7.372275591E-1
1.009012375E0,3.130409002E0,3.424247980E0,4.310899973E-1
1.019024375E0,2.797011852E0,3.260803461E0,1.292452514E-1
1.029036375E0,2.494063377E0,2.829677582E0,-1.460339874E-1
1.039048375E0,2.310060501E0,2.266034603E0,-3.945059776E-1
1.049060375E0,2.242735863E0,1.813419223E0,-6.418771744E-1
1.059072375E0,2.230683804E0,1.547967196E0,-8.710439801E-1
1.069084375E0,2.225258827E0,1.327906728E0,-1.027205825E0
1.079096375E0,2.280144215E0,1.011320114E0,-1.198850989E0
1.089108375E0,2.397784948E0,6.766937971E-1,-1.405539751E0
1.099120375E0,2.562299967E0,2.915836573E-1,-1.592063427E0
1.109132375E0,2.766917706E0,5.934243649E-2,-1.774580240E0
1.119144375E0,3.038331032E0,-9.435687959E-2,-1.977924705E0
1.129156375E0,3.301846266E0,-1.565432847E-1,-2.130393505E0
1.139168375E0,3.367048025E0,-2.857376933E-1,-2.207905293E0
1.149180375E0,3.173262358E0,-4.390529394E-1,-2.237295866E0
1.159192375E0,2.827603340E0,-5.390778184E-1,-2.295940399E0
1.169204375E0,2.443307400E0,-6.398028731E-1,-2.344778538E0
1.179216375E0,2.068627596E0,-5.920156837E-1,-2.373245955E0
1.189228375E0,1.781405926E0,-5.851005316E-1,-2.340234756E0
1.199240375E0,1.624628782E0,-6.512337327E-1,-2.254920244E0
1.209252375E0,1.496600986E0,-5.964370370E-1,-2.161075592E0
1.219264375E0,1.374115109E0,-4.106708467E-1,-2.077122688E0
1.229276375E0,1.283960462E0,-2.109819651E-1,-1.952183127E0
1.239289375E0,1.239910841E0,-1.832768917E-1,-1.854511976E0
1.249301375E0,1.284560084E0,-2.884057164E-1,-1.812561035E0
1.259313375E0,1.724484563E0,-8.235090375E-1,-1.830275297E0
1.269325375E0,2.613463402E0,-1.558047414E0,-1.746347666E0
1.279337375E0,3.493393898E0,-2.267338991E0,-1.616595626E0
1.289349375E0,3.625213861E0,-2.785046339E0,-1.390114069E0
1.299361375E0,3.006488800E0,-2.998575926E0,-1.117137551E0
1.309373375E0,2.091983795E0,-3.247296810E0,-6.140895486E-1
1.319385375E0,1.464747071E0,-2.712085247E0,2.384890616E-2
1.329397375E0,1.075776219E0,-1.644036770E0,5.985580087E-1
1.339409375E0,8.134606481E-1,-4.626582861E-1,9.857822061E-1
1.349421375E0,7.041032910E-1,1.165853590E-1,1.270848036E0
1.359433375E0,7.617480159E-1,-5.889651552E-2,1.499775529E0
1.369445375E0,9.119500518E-1,-4.030869305E-1,1.721661329E0
1.379457375E0,1.048103929E0,-5.083367229E-1,1.872688770E0
1.389469375E0,1.135017037E0,-3.288577795E-1,1.934597373E0
1.399481208E0,1.299268484E0,-1.574260592E-1,1.789281249E0
1.409493208E0,1.478244901E0,3.829684481E-2,1.474287271E0
1.419505208E0,1.496959329E0,-2.014366090E-1,1.184989810E0
1.429517208E0,1.314936161E0,-6.637033224E-1,9.544146061E-1
1.439529208E0,1.055797338E0,-1.260822892E0,7.935562134E-1
1.449541208E0,8.803671598E-1,-1.912848592E0,7.334569693E-1
1.459553208E0,8.076413870E-1,-2.229731560E0,6.637588739E-1
1.469566208E0,8.497006893E-1,-2.221125364E0,5.155614614E-1
1.479578208E0,9.091801047E-1,-1.995126009E0,3.484255970E-1
1.489590208E0,9.393476248E-1,-1.731177092E0,1.711035222E-1
1.499602208E0,8.803107738E-1,-1.526185632E0,4.310325533E-2
1.509614208E0,6.765450835E-1,-1.583078980E0,-7.782928646E-2
1.519626208E0,3.730240762E-1,-1.816684365E0,-2.094761431E-1
1.529638208E0,1.161259972E-2,-1.856657624E0,-2.286828607E-1
1.539650208E0,-2.048508972E-1,-1.763472676E0,-2.847183347E-1
1.549662208E0,-1.803013533E-1,-1.528719544E0,-3.807679117E-1
1.559674208E0,-5.868060887E-2,-1.147764444E0,-2.823818028E-1
1.569686208E0,1.487048119E-1,-8.456733227E-1,-8.172993362E-2
1.579698208E0,4.637386203E-1,-6.316031218E-1,1.367978305E-1
1.589710208E0,7.782872915E-1,-5.730977058E-1,3.498784006E-1
1.599722208E0,9.696260095E-1,-6.530189514E-1,4.877733886E-1
1.609734208E0,1.039687514E0,-9.030213356E-1,5.029107928E-1
1.619746208E0,1.080392480E0,-1.088579416E0,4.651905298E-1
1.629758208E0,1.088320732E0,-1.351646543E0,3.492245078E-1
1.639770208E0,1.000501513E0,-1.743899465E0,1.761478633E-1
1.649782208E0,8.646886349E-1,-2.089983702E0,5.066078156E-2
1.659794208E0,7.768053412E-1,-2.359385729E0,-1.325141639E-4
1.669806208E0,6.516754031E-1,-2.361188173E0,-4.459718615E-2
1.679818208E0,5.543505549E-1,-1.958603501E0,-8.058482409E-2
1.689830208E0,5.294710398E-1,-1.338088036E0,-1.269347370E-1
1.699842208E0,5.221850276E-1,-6.898126006E-1,-1.567677110E-1
1.709854208E0,4.378302097E-1,-1.931072325E-1,-1.169185638E-1
1.719866208E0,2.720630169E-1,-5.874524266E-2,-3.795992117E-3
1.729879208E0,1.954633184E-2,-2.837136388E-1,1.101982221E-1
1.739891208E0,-3.134085834E-1,-6.466597319E-1,2.562988997E-1
1.749903208E0,-5.308676958E-1,-9.298930168E-1,3.425626755E-1
1.759915208E0,-5.548497438E-1,-1.121672869E0,3.578183949E-1
1.769927208E0,-4.388637841E-1,-1.187690973E0,3.227370977E-1
1.779939208E0,-2.547097504E-1,-1.077377796E0,2.228516340E-1
1.789951208E0,-1.061173379E-1,-8.475738764E-1,7.093054801E-2
1.799963208E0,-2.787261605E-1,-6.206098199E-1,-1.668940336E-1
1.809975208E0,-8.395324945E-1,-6.866783500E-1,-3.568261564E-1
1.819987208E0,-1.373776674E0,-9.203456640E-1,-3.856299520E-1
1.829999208E0,-1.437405229E0,-9.152686596E-1,-3.254776597E-1
1.840011208E0,-1.282529712E0,-5.843597651E-1,-3.058352172E-1
1.850023208E0,-1.073253393E0,-3.626526892E-1,-3.236940801E-1
1.860035208E0,-9.008870125E-1,-1.880140156E-1,-4.037207663E-1
1.870047208E0,-7.989116311E-1,-4.395751283E-2,-5.047480464E-1
1.880059208E0,-7.332245111E-1,-2.377992868E-2,-5.948476195E-1
1.890071208E0,-6.898674369E-1,8.864566684E-3,-6.193859577E-1
1.900083208E0,-6.256716847E-1,4.627325386E-2,-5.947644711E-1
1.910095208E0,-4.954511523E-1,6.511724740E-2,-4.933673143E-1
1.920107208E0,-3.435814977E-1,4.539205879E-2,-3.387337327E-1
1.930119208E0,-2.481188923E-1,-6.029761583E-2,-1.875836253E-1
1.940131208E0,-2.073655874E-1,-2.204022408E-1,-1.013162211E-1
1.950143208E0,-1.963616759E-1,-3.290677071E-1,-7.629236579E-2
1.960155208E0,-2.027407885E-1,-3.590143919E-1,-1.121144816E-1
1.970167208E0,-2.309396565E-1,-3.830632865E-1,-1.620687246E-1
1.980179208E0,-2.661896646E-1,-3.718121052E-1,-1.855537444E-1
1.990192208E0,-2.805696428E-1,-3.346764445E-1,-2.033031732E-1
2.000204208E0,-2.930396795E-1,-2.777661085E-1,-1.988422573E-1
2.010216208E0,-2.935715020E-1,-2.099420726E-1,-1.805442125E-1
2.020228208E0,-2.835524082E-1,-8.207453042E-2,-1.751997471E-1
2.030240208E0,-2.648389339E-1,5.425934494E-2,-1.829146445E-1
2.040252208E0,-2.417324334E-1,1.181390360E-1,-1.651805639E-1
2.050264208E0,-2.379227877E-1,1.164524555E-1,-1.332255602E-1
2.060276208E0,-2.462176234E-1,4.294644296E-2,-9.084627032E-2
2.070288208E0,-2.332855761E-1,6.620661356E-3,-8.191669732E-2
2.080300208E0,-1.759081036E-1,1.178418379E-2,-1.009166911E-1
2.090312208E0,-6.590836495E-2,1.626654901E-2,-1.302466094E-1
2.100324208E0,4.119217396E-2,1.457273401E-2,-1.730279922E-1
2.110336208E0,1.627939641E-1,1.706245821E-4,-1.940134317E-1
2.120348208E0,3.055198789E-1,-1.879956387E-2,-1.781523228E-1
2.130360208E0,4.746537805E-1,-5.753710493E-2,-1.195782274E-1
2.140372208E0,6.467921138E-1,-9.720273316E-2,-4.007447883E-2
2.150384208E0,7.820529938E-1,-1.660475731E-1,2.120165899E-2
2.160396208E0,8.666204214E-1,-2.472660840E-1,2.502254210E-2
2.170408208E0,8.893206716E-1,-2.443397939E-1,-3.800850362E-3
2.180420208E0,9.062557220E-1,-2.396225184E-1,-3.239259869E-2
2.190432208E0,8.853187561E-1,-2.585746348E-1,-3.945130855E-2
2.200444208E0,8.145424724E-1,-2.152519673E-1,-3.222576156E-2
2.210456208E0,7.213456631E-1,-8.298021555E-2,-3.519119322E-2
2.220468208E0,6.405780315E-1,9.928635508E-2,-5.563529953E-2
2.230480208E0,5.549198389E-1,2.877351046E-1,-4.535469785E-2
2.240492208E0,4.515912831E-1,4.099713266E-1,3.310815990E-2
2.250505208E0,3.528524637E-1,4.413990080E-1,1.697757244E-1
2.260517208E0,2.273113430E-1,4.350958169E-1,2.920141816E-1
2.270529208E0,7.687443495E-2,4.749460220E-1,3.636865020E-1
2.280541208E0,-4.045834392E-2,5.866845250E-1,3.661707938E-1
2.290553208E0,-7.352867723E-2,7.523299456E-1,3.427307010E-1
2.300565208E0,-1.145793349E-1,9.011346698E-1,3.553240001E-1
2.310577208E0,-2.232994139E-1,9.646606445E-1,4.575145543E-1
2.320589208E0,-3.592396379E-1,9.146308303E-1,6.184268594E-1
2.330601208E0,-5.244382024E-1,7.006985545E-1,8.156773448E-1
2.340613208E0,-5.320386291E-1,-1.717631668E-1,3.314822018E-1
2.350625208E0,-1.611529738E-1,-1.523986273E-2,-1.792870611E-1
2.360637208E0,2.146719247E-1,6.651427746E-1,-2.938868403E-1
2.370649208E0,3.985695839E-1,4.752562046E-1,-1.930036396E-1
2.380661208E0,4.554940462E-1,2.449020445E-1,-4.174944013E-2
2.390673208E0,4.966052771E-1,1.075319201E-2,-1.031375304E-2
2.400684958E0,5.003536344E-1,-1.837377101E-1,-8.815321326E-2
2.410696958E0,4.493783414E-1,-2.378701866E-1,-1.747823805E-1
2.420708958E0,3.300092220E-1,-8.684565872E-2,-2.394774556E-1
2.430720958E0,7.620064914E-2,-3.595585003E-2,-2.449499816E-1
2.440732958E0,-2.050665617E-1,6.185337901E-3,-2.072595656E-1
2.450744958E0,-3.719104230E-1,1.759282947E-1,-9.244670719E-2
2.460756958E0,-4.724747837E-1,3.377484381E-1,4.593352973E-2
2.470768958E0,-5.314909816E-1,3.720560670E-1,1.211792752E-1
2.480780958E0,-4.635387063E-1,4.144719541E-1,1.247303113E-1
2.490792958E0,-3.772118092E-1,4.260138273E-1,8.871106058E-2
2.500804958E0,-3.351150751E-1,3.311879933E-1,3.181840479E-2
2.510816958E0,-3.748134673E-1,7.498873025E-2,3.329246119E-2
2.520829958E0,-4.124323130E-1,-2.758110464E-1,7.832276076E-2
2.530841958E0,-3.901203573E-1,-6.246300340E-1,6.015627086E-2
2.540853958E0,-3.599597216E-1,-8.692657948E-1,-4.546923935E-2
2.550865958E0,-3.845268488E-1,-9.563410282E-1,-2.233732045E-1
2.560877958E0,-4.086533487E-1,-9.965923429E-1,-3.740952611E-1
2.570889958E0,-4.079103172E-1,-9.366911650E-1,-4.080468118E-1
2.580901958E0,-4.509397149E-1,-7.295768261E-1,-4.096950889E-1
2.590913958E0,-5.347408652E-1,-6.224272251E-1,-3.450729549E-1
2.600925958E0,-6.147126555E-1,-5.745542049E-1,-3.003962934E-1
2.610937958E0,-6.285126209E-1,-4.902811348E-1,-3.354759812E-1
2.620949958E0,-4.724773169E-1,-3.141267002E-1,-3.428783119E-1
2.630961958E0,-1.541496515E-1,-1.603382081E-1,-2.520573437E-1
2.640973958E0,9.094382823E-2,-1.733656824E-1,-3.684933856E-2
2.650985958E0,2.470780164E-1,-2.741727531E-1,2.579221129E-1
2.660997958E0,4.050405025E-1,-3.310197890E-1,5.426031947E-1
2.671009958E0,5.761542320E-1,-2.878526151E-1,7.819851637E-1
2.681021958E0,6.746162176E-1,-1.312574595E-1,9.114853144E-1
2.691033958E0,6.411237717E-1,-3.684920073E-2,9.025669694E-1
2.701045958E0,5.733705163E-1,6.063830853E-2,7.611372471E-1
2.711057958E0,5.427271128E-1,1.287617087E-1,6.339688897E-1
2.721069958E0,4.845777750E-1,6.179519743E-2,5.449886322E-1
2.731081958E0,3.497136831E-1,-1.105392873E-1,4.362712204E-1
2.741093958E0,1.803215891E-1,-1.663624495E-1,3.436623812E-1
2.751105958E0,1.680558622E-1,-7.695694268E-2,2.470146716E-1
2.761117958E0,3.653446436E-1,1.185980812E-1,1.715157628E-1
2.771129958E0,6.505601406E-1,3.360366821E-1,2.022872567E-1
2.781141958E0,9.183484316E-1,5.064823031E-1,3.582471609E-1
2.791153958E0,1.105734229E0,5.792675614E-1,5.826922655E-1
2.801166958E0,1.189400077E0,6.030672789E-1,7.521471977E-1
2.811178958E0,1.165060163E0,5.363510847E-1,7.116216421E-1
2.821190958E0,1.157124639E0,3.336933255E-1,4.365517199E-1
2.831202958E0,1.203024745E0,-8.769242559E-4,1.396870166E-1
2.841214958E0,1.262801409E0,-3.813308775E-1,-9.935587645E-2
2.851226958E0,1.274868965E0,-6.542500257E-1,-2.149125785E-1
2.861238958E0,1.188159108E0,-7.690972090E-1,-1.534295082E-1
2.871250958E0,1.014192581E0,-7.952236533E-1,4.466919973E-2
2.881262958E0,7.028294206E-1,-7.424688339E-1,3.113086820E-1
2.891274958E0,3.418930769E-1,-4.955983162E-1,5.487614274E-1
2.901286958E0,7.524401695E-2,-1.598081440E-1,6.563220024E-1
2.911298958E0,2.314412966E-3,1.785131842E-1,6.975738406E-1
2.921310958E0,5.639728159E-2,4.007416666E-1,5.719746351E-1
2.931322958E0,1.954710186E-1,5.334064960E-1,3.463270664E-1
2.941334958E0,4.136391580E-1,5.205087066E-1,1.910784543E-1
2.951346958E0,5.022808313E-1,4.063432813E-1,1.472138017E-1
2.961358958E0,3.726339936E-1,3.949423432E-1,1.393202245E-1
2.971370958E0,4.688917100E-2,5.853706002E-1,1.208077967E-1
2.981382958E0,-2.335044146E-1,8.550111651E-1,1.831593737E-2
2.991394958E0,-2.676320374E-1,6.194204688E-1,-1.173667908E-1
3.001406958E0,-2.035011649E-1,2.085011601E-1,-2.415384501E-1
3.011418958E0,-9.584714472E-2,-2.217932343E-1,-3.799479902E-1
3.021430958E0,1.339740753E-1,-6.758573651E-1,-4.322849512E-1
3.031442958E0,4.263721108E-1,-9.641938210E-1,-4.899450541E-1
3.041454958E0,6.464063525E-1,-1.232169509E0,-5.802210569E-1
3.051466958E0,6.970468760E-1,-1.931002736E0,-6.376582384E-1
3.061478958E0,4.832232594E-1,-1.838143229E0,-6.558817029E-1
3.071491958E0,2.669617720E-2,-1.312779546E0,-5.497472882E-1
3.081503958E0,-2.553030550E-1,-1.092561960E0,-3.156419396E-1
3.091515958E0,-1.458673477E-1,-7.673939466E-1,-1.885620207E-1
3.101527958E0,6.215335429E-2,-3.860507011E-1,-1.594203413E-1
3.111539958E0,6.512384862E-2,-7.118436694E-2,-1.475778073E-1
3.121551958E0,-1.416106373E-1,3.682046756E-2,-1.247436106E-1
3.131563958E0,-3.576164246E-1,2.227987349E-2,-5.021504685E-2
3.141575958E0,-4.401097894E-1,-6.697683036E-2,-5.847434700E-2
3.151587958E0,-4.092043340E-1,-1.631603539E-1,-8.884903044E-2
3.161599958E0,-3.617131412E-1,-2.143612206E-1,-8.689375222E-2
3.171611958E0,-2.328510284E-1,-3.372522295E-1,-4.789149389E-2
3.181623958E0,-6.403852254E-2,-3.312467039E-1,-5.457561463E-2
3.191635958E0,9.469280392E-2,-1.608467698E-1,-1.689368188E-1
3.201647958E0,2.491763830E-1,1.213915832E-2,-2.778053284E-1
3.211659958E0,2.815308571E-1,-6.811706722E-2,-3.365549445E-1
3.221671958E0,1.690155417E-1,-2.169365585E-1,-2.582101226E-1
3.231683958E0,3.037483431E-2,-2.536471784E-1,-2.051490396E-1
3.241695958E0,-3.123283014E-2,-3.716430962E-1,-1.523031890E-1
3.251707958E0,-1.021946222E-1,-4.990897477E-1,-1.108122170E-1
3.261719958E0,-1.846968085E-1,-5.515410900E-1,-1.416319013E-1
3.271731958E0,-2.633756399E-1,-3.839733899E-1,-1.741168648E-1
3.281743958E0,-3.375866413E-1,7.303341478E-2,-1.252427697E-1
3.291755958E0,-4.476321936E-1,6.270489693E-1,-1.251165420E-1
3.301768958E0,-5.856760740E-1,9.677154422E-1,-1.621808559E-1
3.311780958E0,-7.077109218E-1,9.009055495E-1,-2.082623392E-1
3.321792958E0,-8.496089578E-1,4.210608304E-1,-2.372944653E-1
3.331804958E0,-8.391770720E-1,-1.251809299E-1,-2.787699997E-1
3.341816958E0,-6.258131266E-1,-5.837793350E-1,-2.678674161E-1
3.351828958E0,-3.408569992E-1,-1.017686844E0,-1.909606308E-1
